Frequency,Amplitude
50.0105152471083,0.010644140063664775
50.02103049421661,0.009339932550513774
50.03154574132491,0.008650108370371334
50.04206098843322,0.008203037245979471
50.05257623554153,0.007882276001603905
50.06309148264984,0.007637599001785858
50.07360672975815,0.007443205899945786
50.08412197686645,0.007284257654691615
50.09463722397476,0.007151509703731983
50.105152471083066,0.0070388481355061075
50.115667718191375,0.006942037155775093
50.12618296529968,0.006858030924452235
50.136698212407985,0.006784571536919066
50.147213459516294,0.0067199421629157785
50.1577287066246,0.006662809058182121
50.168243953732905,0.00661211686140573
50.17875920084121,0.006567017100652825
50.18927444794952,0.0065268180972507025
50.19978969505783,0.006490949060663691
50.21030494216613,0.006458933836632696
50.22082018927444,0.006430371370777633
50.23133543638275,0.006404920938239813
50.24185068349106,0.006382290817020355
50.25236593059936,0.006362229490126249
50.26288117770767,0.006344518732135961
50.27339642481598,0.006328968118901682
50.28391167192429,0.0063154106252640285
50.29442691903259,0.006303699063995214
50.3049421661409,0.006293703181970054
50.315457413249206,0.006285307274798362
50.325972660357515,0.006278408214157421
50.336487907465816,0.006272913806430182
50.347003154574125,0.006268741419441097
50.357518401682434,0.006265816827795902
50.36803364879074,0.006264073237772112
50.37854889589905,0.006263450460729016
50.38906414300735,0.006263894210222736
50.39957939011566,0.006265355502869329
50.41009463722397,0.006267790146826571
50.42060988433228,0.006271158304803838
50.43112513144058,0.006275424120942116
50.44164037854889,0.006280555402870402
50.4521556256572,0.006286523351843434
50.46267087276551,0.006293302335180603
50.47318611987381,0.006300869696319049
50.48370136698212,0.006309205598713667
50.494216614090426,0.006318292900602835
50.504731861198735,0.006328117058342675
50.51524710830704,0.006338666056619703
50.525762355415345,0.006349930364404911
50.536277602523654,0.006361902916031053
50.54679284963196,0.006374579117275639
50.557308096740265,0.006387956876833229
50.56782334384857,0.006402036664078689
50.57833859095688,0.006416821594575038
50.58885383806519,0.006432317545387154
50.59936908517349,0.00644853330294749
50.6098843322818,0.006465480747009538
50.62039957939011,0.006483175075153611
50.63091482649842,0.006501635073418094
50.64143007360673,0.006520883439970639
50.65194532071503,0.0065409471703776435
50.66246056782334,0.006561858015062041
50.67297581493165,0.0065836530220788865
50.683491062039955,0.006606375181536676
50.69400630914826,0.00663007419205859
50.704521556256566,0.006654807374890844
50.715036803364875,0.006680640768007106
50.72555205047318,0.006707650441357432
50.736067297581485,0.006735924086002645
50.746582544689794,0.006765562945301993
50.7570977917981,0.0067966841770701735
50.76761303890641,0.006829423763843094
50.77812828601471,0.006863940127256769
50.78864353312302,0.006900418656773508
50.79915878023133,0.0069390774397505885
50.80967402733964,0.006980174590212289
50.82018927444794,0.007024017735108335
50.83070452155625,0.007070976457425299
50.84121976866456,0.0071214988616378795
50.85173501577287,0.007176133997214142
50.86225026288117,0.007235562787367668
50.87276550998948,0.007300641610497003
50.883280757097786,0.007372465234697922
50.893796004206095,0.007452460319351066
50.9043112513144,0.007542529040102807
50.914826498422705,0.007645278638911497
50.925341745531014,0.007764406374272137
50.93585699263932,0.00790538466795569
50.94637223974763,0.008076776567356548
50.95688748685593,0.008293027497224817
50.96740273396424,0.008581277521402808
50.97791798107255,0.009001891943609903
50.98843322818086,0.009738226259962518
50.99894847528916,0.01226850127016242
51.00946372239747,0.007443071082674536
51.01997896950578,0.006322752489757988
51.03049421661409,0.005670182839793958
51.04100946372239,0.005212013349868916
51.0515247108307,0.004860530332857599
51.06203995793901,0.004576460194871404
51.072555205047315,0.004338829383322554
51.08307045215562,0.0041351204768579385
51.093585699263926,0.003957264577750526
51.104100946372235,0.0037997568068282323
51.11461619348054,0.0036586742507534672
51.125131440588845,0.0035311230204014893
51.135646687697154,0.0034149074808346586
51.14616193480546,0.003308322492710265
51.15667718191377,0.0032100175673593218
51.16719242902207,0.00311890499872092
51.17770767613038,0.0030340959273876663
51.18822292323869,0.002954854730134996
51.198738170347,0.0028805657739920418
51.2092534174553,0.002810708719708101
51.21976866456361,0.0027448398656513156
51.23028391167192,0.002682577842109751
51.24079915878023,0.002623592493022352
51.251314405888536,0.0025675961293878348
51.26182965299684,0.002514336572192406
51.272344900105146,0.0024635915628500116
51.282860147213455,0.00241516423085516
51.293375394321764,0.0023688793874935632
51.303890641430066,0.0023245804713425667
51.314405888538374,0.0022821270127241773
51.32492113564668,0.00224139251481791
51.33543638275499,0.0022022626719136254
51.34595162986329,0.0021646338624427474
51.3564668769716,0.0021284118674795866
51.36698212407991,0.0020935107754263753
51.37749737118822,0.002059852041355353
51.38801261829652,0.0020273636755371678
51.39852786540483,0.001995979540447632
51.40904311251314,0.001965638739315555
51.41955835962145,0.0019362850822810108
51.43007360672975,0.0019078666186447216
51.44058885383806,0.0018803352256355492
51.45110410094637,0.0018536462457018987
51.461619348054676,0.0018277581656215211
51.47213459516298,0.0018026323317805236
51.482649842271286,0.0017782326968427214
51.493165089379595,0.0017545255937510542
51.5036803364879,0.0017314795336017578
51.51419558359621,0.0017090650244319253
51.524710830704514,0.001687254408380302
51.53522607781282,0.0016660217150337852
51.54574132492113,0.001645342529069803
51.55625657202944,0.0016251938705572119
51.56677181913774,0.00160555408649287
51.57728706624605,0.0015864027523340484
51.58780231335436,0.0015677205824434787
51.59831756046267,0.0015494893484983437
51.60883280757097,0.0015316918050299762
51.61934805467928,0.0015143116213611537
51.62986330178759,0.0014973333192940745
51.640378548895896,0.0014807422159771391
51.6508937960042,0.0014645243714439293
51.661409043112506,0.0014486665403744654
51.671924290220815,0.0014331561276786677
51.682439537329124,0.0014179811475453152
51.692954784437426,0.001403130185638078
51.703470031545734,0.0013885923641537273
51.71398527865404,0.0013743573094872606
51.72450052576235,0.0013604151222747572
51.73501577287065,0.0013467563496079862
51.74553101997896,0.0013333719592352913
51.75604626708727,0.0013202533155812653
51.76656151419558,0.001307392157434301
51.77707676130388,0.001294780577165233
51.78759200841219,0.0012824110013531119
51.7981072555205,0.0012702761727060234
51.80862250262881,0.0012583691331747042
51.819137749737116,0.0012466832081663905
51.82965299684542,0.0012352119917741567
51.84016824395373,0.0012239493329450118
51.850683491062036,0.0012128893225161776
51.861198738170344,0.0012020262810554013
51.871713985278646,0.0011913547474465835
51.882229232386955,0.0011808694681667456
51.89274447949526,0.0011705653872049978
51.90325972660357,0.00116043763657826
51.913774973711874,0.0011504815274020186
51.92429022082018,0.001140692541477855
51.93480546792849,0.001131066323362442
51.9453207150368,0.0011215986728856189
51.9558359621451,0.001112285538087455
51.96635120925341,0.0011031230085467507
51.97686645636172,0.001094107309075273
51.98738170347003,0.0010852347937541735
51.99789695057833,0.001076501940290754
52.00841219768664,0.0010679053446751307
52.01892744479495,0.0010594417161181723
52.029442691903256,0.0010511078722531375
52.03995793901156,0.001042900734584947
52.050473186119866,0.0010348173241718573
52.060988433228175,0.0010268547575257353
52.071503680336484,0.0010190102427177351
52.082018927444786,0.0010112810756773482
52.092534174553094,0.0010036646366734464
52.1030494216614,0.0009961583869668193
52.11356466876971,0.0009887598656243518
52.12407991587802,0.0009814666864855863
52.13459516298632,0.0009742765352731613
52.14511041009463,0.0009671871668390333
52.15562565720294,0.0009601964025389781
52.16614090431125,0.000953302127728349
52.17665615141955,0.0009465022893724435
52.18717139852786,0.0009397948937653803
52.19768664563617,0.0009331780043515974
52.208201892744476,0.0009266497396445631
52.21871713985278,0.0009202082712376598
52.22923238696109,0.0009138518219022829
52.239747634069396,0.0009075786637688199
52.250262881177704,0.0009013871165861265
52.260778128286006,0.0008952755460555563
52.271293375394315,0.0008892423622358152
52.28180862250262,0.0008832860180150522
52.29232386961093,0.0008774050076468444
52.302839116719234,0.0008715978653469887
52.31335436382754,0.00086586316394804
52.32386961093585,0.0008601995136088761
52.33438485804416,0.0008546055605766046
52.34490010515246,0.0008490799859982932
52.35541535226077,0.0008436215047802236
52.36593059936908,0.0008382288644923613
52.37644584647739,0.0008329008443159939
52.3869610935857,0.0008276362540324656
52.397476340694,0.0008224339330512046
52.40799158780231,0.0008172927494751858
52.418506834910616,0.0008122115992021399
52.429022082018925,0.0008071894050599151
52.439537329127226,0.0008022251159744738
52.450052576235535,0.0007973177061690166
52.460567823343844,0.0007924661743929812
52.47108307045215,0.0007876695431794289
52.481598317560454,0.0007829268581298032
52.49211356466876,0.0007782371872246655
52.50262881177707,0.0007735996201594504
52.51314405888538,0.0007690132677040932
52.52365930599368,0.000764477261085545
52.53417455310199,0.0007599907513922316
52.5446898002103,0.0007555529089994872
52.55520504731861,0.0007511629230151468
52.56572029442691,0.0007468200007444462
52.57623554153522,0.000742523367173419
52.58675078864353,0.0007382722644700802
52.59726603575184,0.0007340659515026541
52.60778128286014,0.0007299037033741166
52.61829652996845,0.0007257848109725218
52.628811777076756,0.0007217085805363276
52.639327024185064,0.0007176743332343116
52.649842271293366,0.0007136814047592838
52.660357518401675,0.0007097291449353104
52.67087276550998,0.0007058169173376739
52.68138801261829,0.0007019440989252921
52.6919032597266,0.0006981100796850143
52.7024185068349,0.0006943142622872959
52.71293375394321,0.000690556061752949
52.72344900105152,0.0006868349051305008
52.73396424815983,0.0006831502311836716
52.74447949526813,0.0006795014900887406
52.75499474237644,0.0006758881431413446
52.76550998948475,0.0006723096624724044
52.77602523659306,0.0006687655307728041
52.78654048370136,0.0006652552410265504
52.79705573080967,0.0006617782962520746
52.807570977917976,0.0006583342092514016
52.818086225026285,0.0006549225023668958
52.82860147213459,0.0006515427072453434
52.839116719242895,0.0006481943646090397
52.849631966351204,0.0006448770240337218
52.86014721345951,0.0006415902437330714
52.870662460567814,0.000638333590349515
52.88117770767612,0.0006351066387512049
52.89169295478443,0.0006319089718348442
52.90220820189274,0.0006287401803343108
52.91272344900104,0.0006255998626346967
52.92323869610935,0.0006224876245917418
52.93375394321766,0.0006194030793563969
52.94426919032597,0.0006163458472043631
52.95478443743427,0.0006133155553704353
52.96529968454258,0.000610311837887503
52.97581493165089,0.0006073343354300648
52.9863301787592,0.00060438269516207
52.996845425867505,0.0006014565705889886
53.00736067297581,0.0005985556214139145
53.017875920084116,0.000595679513397677
53.028391167192424,0.0005928279182226897
53.03890641430073,0.0005900005133605627
53.049421661409035,0.0005871969819432293
53.059936908517344,0.0005844170126375717
53.07045215562565,0.0005816602995233941
53.08096740273396,0.0005789265419746062
53.09148264984226,0.0005762154445436167
53.10199789695057,0.0005735267168487194
53.11251314405888,0.0005708600734644491
53.12302839116719,0.0005682152338148255
53.13354363827549,0.0005655919220693191
53.1440588853838,0.000562989867041576
53.15457413249211,0.0005604088020906748
53.16508937960042,0.0005578484650249692
53.17560462670872,0.0005553085980083937
53.18611987381703,0.0005527889474690765
53.196635120925336,0.0005502892640103345
53.207150368033645,0.0005478093023238941
53.21766561514195,0.0005453488211052568
53.228180862250255,0.0005429075829711987
53.238696109358564,0.0005404853543793354
53.24921135646687,0.0005380819055496246
53.25972660357518,0.0005356970103878504
53.27024185068348,0.0005333304464109759
53.28075709779179,0.0005309819946742848
53.2912723449001,0.0005286514397003418
53.30178759200841,0.0005263385694096154
53.31230283911671,0.0005240431750528281
53.32281808622502,0.0005217650511448879
53.33333333333333,0.0005195039954004324
53.34384858044164,0.0005172598086708534
53.35436382754994,0.0005150322948828913
53.36487907465825,0.0005128212609785988
53.37539432176656,0.0005106265168567737
53.385909568874865,0.000508447875315713
53.39642481598317,0.0005062851519973452
53.406940063091476,0.0005041381653326265
53.417455310199784,0.0005020067364882162
53.42797055730809,0.0004998906893143799
53.438485804416395,0.0004977898502940528
53.449001051524704,0.000495704048493129
53.45951629863301,0.0004936331155118287
53.47003154574132,0.0004915768854371551
53.48054679284962,0.0004895351947964818
53.49106203995793,0.0004875078825121565
53.50157728706624,0.00048549478985707975
53.51209253417455,0.00048349576041134367
53.52260778128285,0.0004815106400197814
53.53312302839116,0.0004795392767504346
53.54363827549947,0.000477581520854043
53.55415352260778,0.0004756372247243287
53.564668769716086,0.0004737062428591091
53.57518401682439,0.00047178843182238097
53.585699263932696,0.0004698836502071718
53.596214511041005,0.0004679917585991357
53.606729758149314,0.00046611261954100755
53.617245005257615,0.00046424609749778933
53.627760252365924,0.00046239205882269845
53.63827549947423,0.000460550371723794
53.64879074658254,0.0004587209062313824
53.65930599369084,0.00045690353416601967
53.66982124079915,0.00045509812910728424
53.68033648790746,0.0004533045663631388
53.69085173501577,0.000451522722939939
53.70136698212407,0.0004497524775131081
53.71188222923238,0.0004479937103983319
53.72239747634069,0.0004462463035234934
53.732912723449,0.0004445101404010199
53.7434279705573,0.0004427851061008638
53.75394321766561,0.00044107108722413825
53.76445846477392,0.0004393679718771251
53.774973711882225,0.0004376756496458631
53.78548895899053,0.00043599401157132955
53.796004206098836,0.00043432295012501936
53.806519453207144,0.00043266235918505274
53.81703470031545,0.0004310121340127672
53.827549947423755,0.0004293721712298052
53.838065194532064,0.00042774236879555117
53.84858044164037,0.0004261226259851497
53.85909568874868,0.00042451284336785086
53.86961093585699,0.00042291292278584026
53.88012618296529,0.00042132276733347694
53.8906414300736,0.0004197422813368875
53.90115667718191,0.0004181713703340287
53.91167192429022,0.0004166099410550834
53.92218717139852,0.0004150579014032506
53.93270241850683,0.00041351516043593194
53.94321766561514,0.0004119816283462204
53.953732912723446,0.00041045721644479907
53.96424815983175,0.00040894183714214647
53.974763406940056,0.0004074354039311021
53.985278654048365,0.0004059378313697541
53.995793901156674,0.0004044490350646459
54.006309148264975,0.0004029689316543081
54.016824395373284,0.00040149743879308895
54.02733964248159,0.0004000344751352738
54.0378548895899,0.0003985799603195416
54.0483701366982,0.00039713381495366616
54.05888538380651,0.00039569596059951036
54.06940063091482,0.0003942663197583374
54.07991587802313,0.00039284481585632157
54.09043112513143,0.0003914313732303649
54.10094637223974,0.00039002591711418153
54.11146161934805,0.0003886283736246123
54.12197686645636,0.00038723866974819585
54.132492113564666,0.0003858567333279713
54.14300736067297,0.00038448249305055054
54.15352260778128,0.0003831158784333806
54.164037854889585,0.00038175681981225077
54.174553101997894,0.00038040524832904526
54.185068349106196,0.0003790610959196693
54.195583596214504,0.0003777242953022374
54.20609884332281,0.0003763947799654105
54.21661409043112,0.00037507248415699423
54.227129337539424,0.00037375734287272463
54.23764458464773,0.0003724492918452111
54.24815983175604,0.0003711482675331171
54.25867507886435,0.00036985420711052234
54.26919032597265,0.0003685670484564281
54.27970557308096,0.00036728673014451547
54.29022082018927,0.0003660131914330096
54.30073606729758,0.0003647463722547296
54.31125131440588,0.00036348621320738073
54.32176656151419,0.0003622326555439137
54.3322818086225,0.0003609856411630833
54.342797055730806,0.00035974511260021276
54.35331230283911,0.0003585110130180514
54.363827549947416,0.00035728328619779573
54.374342797055725,0.00035606187653028376
54.384858044164034,0.00035484672900735575
54.395373291272335,0.00035363778921330047
54.405888538380644,0.0003524350033164644
54.41640378548895,0.0003512383180610316
54.42691903259726,0.00035004768075890956
54.43743427970557,0.00034886303928174527
54.44794952681387,0.0003476843420531057
54.45846477392218,0.0003465115380407195
54.46898002103049,0.00034534457674895066
54.4794952681388,0.00034418340821124033
54.4900105152471,0.00034302798298288366
54.50052576235541,0.00034187825213366046
54.51104100946372,0.0003407341672408537
54.521556256572026,0.0003395956803821849
54.53207150368033,0.00033846274412891505
54.54258675078864,0.00033733531153911283
54.553101997896945,0.00033621333615098305
54.563617245005254,0.00033509677197625295
54.574132492113556,0.0003339855734937814
54.584647739221865,0.00033287969564315794
54.59516298633017,0.00033177909381844556
54.60567823343848,0.00033068372386205387
54.616193480546784,0.00032959354205863104
54.62670872765509,0.0003285085051291493
54.6372239747634,0.0003274285702249611
54.64773922187171,0.0003263536949220678
54.65825446898001,0.00032528383721538274
54.66876971608832,0.0003242189555131603
54.67928496319663,0.00032315900863144576
54.68980021030494,0.00032210395578862263
54.70031545741324,0.0003210537566000906
54.71083070452155,0.0003200083710729719
54.72134595162986,0.00031896775960091046
54.731861198738166,0.0003179318829589437
54.742376445846475,0.00031690070229849557
54.752891692954776,0.0003158741791423777
54.763406940063085,0.0003148522753799091
54.773922187171394,0.00031383495326209153
54.7844374342797,0.0003128221753968741
54.794952681388004,0.0003118139047444511
54.80546792849631,0.00031081010461268756
54.81598317560462,0.0003098107386525457
54.82649842271293,0.0003088157708536097
54.83701366982123,0.0003078251655397137
54.84752891692954,0.00030683888736454776
54.85804416403785,0.0003058569013074002
54.86855941114616,0.00030487917266893826
54.87907465825446,0.0003039056670670273
54.88958990536277,0.00030293635043265475
54.90010515247108,0.0003019711890058686
54.910620399579386,0.00030101014933180337
54.92113564668769,0.00030005319825675107
54.931650893796,0.0002991003029242791
54.942166140904305,0.00029815143077141065
54.952681388012614,0.00029720654952488485
54.963196635120916,0.00029626562719741134
54.973711882229225,0.00029532863208404225
54.98422712933753,0.00029439553275852797
54.99474237644584,0.00029346629806979686
55.00525762355415,0.0002925408971384058
55.01577287066245,0.00029161929935310574
55.02628811777076,0.0002907014743674316
55.03680336487907,0.0002897873920963078
55.04731861198738,0.0002888770227127411
55.05783385909568,0.00028797033664456517
55.06834910620399,0.00028706730457116647
55.0788643533123,0.0002861678974203318
55.08937960042061,0.0002852720863650818
55.09989484752891,0.0002843798428205752
55.11041009463722,0.00028349113844105086
55.120925341745526,0.00028260594511680584
55.131440588853835,0.0002817242349711947
55.141955835962136,0.0002808459803577154
55.152471083070445,0.0002799711538570965
55.162986330178754,0.0002790997282744242
55.17350157728706,0.00027823167663632633
55.184016824395364,0.0002773669721881612
55.19453207150367,0.0002765055883912985
55.20504731861198,0.00027564749892037595
55.21556256572029,0.00027479267766062027
55.22607781282859,0.00027394109870518767
55.2365930599369,0.00027309273635256476
